PE UV       SUBTECH     SPECTRUM    ASCII       PEDS        4.00        
   -1
100% or 0 Absorbance Baseline.Correction.Raw.asc
26/09/25
14:30:57.00
26/09/25
14:30:57.00
Analyst

200,000000
1
Lambda 35
502S09021304
PerkinElmer UV WinLab 6.0.2.0723 / Lambda35 1.27

480
0
1
0
0
Both on
0
1
1
None
0
0
0
0
 
 
0
0
0
0
0
 
 
 
0
 
0
326
0
 
0
 
 
 
0
0
0
 
0
 
 
 
0
 
 
0
0
0
0
0
 
 
 
 
0
0
#HDR
-1
-1
#GR
nm
A
1.0
0.0
900,000000
-1,000000
701
8
-0,007090
-0,081095
#DATA
900,000000	-0,067863
899,000000	-0,067781
898,000000	-0,067670
897,000000	-0,067625
896,000000	-0,067521
895,000000	-0,067439
894,000000	-0,067447
893,000000	-0,067432
892,000000	-0,067469
891,000000	-0,067454
890,000000	-0,067606
889,000000	-0,067640
888,000000	-0,067774
887,000000	-0,067989
886,000000	-0,068149
885,000000	-0,068509
884,000000	-0,068809
883,000000	-0,069246
882,000000	-0,069761
881,000000	-0,070333
880,000000	-0,070854
879,000000	-0,071326
878,000000	-0,071772
877,000000	-0,072173
876,000000	-0,072595
875,000000	-0,072849
874,000000	-0,073363
873,000000	-0,073597
872,000000	-0,073982
871,000000	-0,074326
870,000000	-0,074641
869,000000	-0,074966
868,000000	-0,075328
867,000000	-0,075543
866,000000	-0,075875
865,000000	-0,076243
864,000000	-0,076451
863,000000	-0,076717
862,000000	-0,077026
861,000000	-0,077270
860,000000	-0,077528
859,000000	-0,077782
858,000000	-0,077971
857,000000	-0,078257
856,000000	-0,078453
855,000000	-0,078703
854,000000	-0,078931
853,000000	-0,079080
852,000000	-0,079264
851,000000	-0,079594
850,000000	-0,079680
849,000000	-0,079883
848,000000	-0,079980
847,000000	-0,080074
846,000000	-0,080287
845,000000	-0,080421
844,000000	-0,080493
843,000000	-0,080623
842,000000	-0,080731
841,000000	-0,080792
840,000000	-0,080846
839,000000	-0,080904
838,000000	-0,080958
837,000000	-0,081019
836,000000	-0,081095
835,000000	-0,081095
834,000000	-0,081045
833,000000	-0,081056
832,000000	-0,081056
831,000000	-0,080976
830,000000	-0,080958
829,000000	-0,080911
828,000000	-0,080832
827,000000	-0,080814
826,000000	-0,080684
825,000000	-0,080666
824,000000	-0,080554
823,000000	-0,080461
822,000000	-0,080287
821,000000	-0,080226
820,000000	-0,080045
819,000000	-0,079901
818,000000	-0,079764
817,000000	-0,079597
816,000000	-0,079449
815,000000	-0,079293
814,000000	-0,079138
813,000000	-0,078935
812,000000	-0,078758
811,000000	-0,078537
810,000000	-0,078344
809,000000	-0,078130
808,000000	-0,077945
807,000000	-0,077702
806,000000	-0,077459
805,000000	-0,077270
804,000000	-0,077037
803,000000	-0,076812
802,000000	-0,076509
801,000000	-0,076327
800,000000	-0,076112
799,000000	-0,075813
798,000000	-0,075583
797,000000	-0,075379
796,000000	-0,075039
795,000000	-0,074842
794,000000	-0,074820
793,000000	-0,074531
792,000000	-0,074279
791,000000	-0,073993
790,000000	-0,073755
789,000000	-0,073564
788,000000	-0,073326
787,000000	-0,072889
786,000000	-0,072599
785,000000	-0,072309
784,000000	-0,072066
783,000000	-0,071801
782,000000	-0,071610
781,000000	-0,071304
780,000000	-0,071138
779,000000	-0,070924
778,000000	-0,070658
777,000000	-0,070359
776,000000	-0,070138
775,000000	-0,069942
774,000000	-0,069609
773,000000	-0,069420
772,000000	-0,069154
771,000000	-0,068957
770,000000	-0,068642
769,000000	-0,068434
768,000000	-0,068256
767,000000	-0,068004
766,000000	-0,067658
765,000000	-0,067513
764,000000	-0,067216
763,000000	-0,067030
762,000000	-0,066862
761,000000	-0,066628
760,000000	-0,066464
759,000000	-0,066222
758,000000	-0,066009
757,000000	-0,065774
756,000000	-0,065490
755,000000	-0,065292
754,000000	-0,065060
753,000000	-0,064832
752,000000	-0,064664
751,000000	-0,064424
750,000000	-0,064241
749,000000	-0,064008
748,000000	-0,063772
747,000000	-0,063600
746,000000	-0,063397
745,000000	-0,063194
744,000000	-0,063010
743,000000	-0,062789
742,000000	-0,062582
741,000000	-0,062338
740,000000	-0,062243
739,000000	-0,061991
738,000000	-0,061799
737,000000	-0,061652
736,000000	-0,061396
735,000000	-0,061245
734,000000	-0,061083
733,000000	-0,060856
732,000000	-0,060675
731,000000	-0,060486
730,000000	-0,060316
729,000000	-0,060139
728,000000	-0,059983
727,000000	-0,059855
726,000000	-0,059597
725,000000	-0,059510
724,000000	-0,059332
723,000000	-0,059139
722,000000	-0,058984
721,000000	-0,058817
720,000000	-0,058658
719,000000	-0,058475
718,000000	-0,058339
717,000000	-0,058213
716,000000	-0,058020
715,000000	-0,057879
714,000000	-0,057731
713,000000	-0,057552
712,000000	-0,057449
711,000000	-0,057267
710,000000	-0,057202
709,000000	-0,056992
708,000000	-0,056890
707,000000	-0,056691
706,000000	-0,056569
705,000000	-0,056417
704,000000	-0,056295
703,000000	-0,056177
702,000000	-0,056020
701,000000	-0,055917
700,000000	-0,055768
699,000000	-0,055558
698,000000	-0,055512
697,000000	-0,055348
696,000000	-0,055229
695,000000	-0,055095
694,000000	-0,054984
693,000000	-0,054843
692,000000	-0,054678
691,000000	-0,054579
690,000000	-0,054479
689,000000	-0,054391
688,000000	-0,054230
687,000000	-0,054100
686,000000	-0,053992
685,000000	-0,053843
684,000000	-0,053743
683,000000	-0,053846
682,000000	-0,053827
681,000000	-0,053597
680,000000	-0,053536
679,000000	-0,053367
678,000000	-0,053251
677,000000	-0,053198
676,000000	-0,052894
675,000000	-0,052713
674,000000	-0,052663
673,000000	-0,052563
672,000000	-0,052471
671,000000	-0,052371
670,000000	-0,052224
669,000000	-0,052097
668,000000	-0,051982
667,000000	-0,051901
666,000000	-0,051885
665,000000	-0,051631
664,000000	-0,051573
663,000000	-0,051469
662,000000	-0,051427
661,000000	-0,051249
660,000000	-0,051156
659,000000	-0,051079
658,000000	-0,051017
657,000000	-0,050844
656,000000	-0,050743
655,000000	-0,050635
654,000000	-0,050577
653,000000	-0,050534
652,000000	-0,050329
651,000000	-0,050252
650,000000	-0,050194
649,000000	-0,050020
648,000000	-0,049908
647,000000	-0,049946
646,000000	-0,049737
645,000000	-0,049691
644,000000	-0,049563
643,000000	-0,049443
642,000000	-0,049396
641,000000	-0,049203
640,000000	-0,049175
639,000000	-0,049082
638,000000	-0,048978
637,000000	-0,048799
636,000000	-0,048780
635,000000	-0,048636
634,000000	-0,048500
633,000000	-0,048457
632,000000	-0,048384
631,000000	-0,048174
630,000000	-0,048143
629,000000	-0,048026
628,000000	-0,047909
627,000000	-0,047847
626,000000	-0,047684
625,000000	-0,047555
624,000000	-0,047505
623,000000	-0,047380
622,000000	-0,047248
621,000000	-0,047146
620,000000	-0,047100
619,000000	-0,046897
618,000000	-0,046788
617,000000	-0,046737
616,000000	-0,046643
615,000000	-0,046554
614,000000	-0,046409
613,000000	-0,046300
612,000000	-0,046159
611,000000	-0,046042
610,000000	-0,045972
609,000000	-0,045777
608,000000	-0,045577
607,000000	-0,045503
606,000000	-0,045331
605,000000	-0,045206
604,000000	-0,045069
603,000000	-0,044818
602,000000	-0,044646
601,000000	-0,044512
600,000000	-0,044355
599,000000	-0,044073
598,000000	-0,043822
597,000000	-0,043586
596,000000	-0,043205
595,000000	-0,042918
594,000000	-0,042603
593,000000	-0,042142
592,000000	-0,041811
591,000000	-0,041310
590,000000	-0,040931
589,000000	-0,040412
588,000000	-0,039866
587,000000	-0,039378
586,000000	-0,038898
585,000000	-0,038362
584,000000	-0,037940
583,000000	-0,037526
582,000000	-0,037112
581,000000	-0,036749
580,000000	-0,036393
579,000000	-0,036050
578,000000	-0,035930
577,000000	-0,035706
576,000000	-0,035526
575,000000	-0,035594
574,000000	-0,035526
573,000000	-0,035506
572,000000	-0,035466
571,000000	-0,035482
570,000000	-0,035474
569,000000	-0,035562
568,000000	-0,035570
567,000000	-0,035646
566,000000	-0,035882
565,000000	-0,035698
564,000000	-0,035818
563,000000	-0,035818
562,000000	-0,035950
561,000000	-0,035986
560,000000	-0,035978
559,000000	-0,036170
558,000000	-0,036517
557,000000	-0,036509
556,000000	-0,036601
555,000000	-0,036737
554,000000	-0,036773
553,000000	-0,036745
552,000000	-0,036884
551,000000	-0,036888
550,000000	-0,036912
549,000000	-0,036984
548,000000	-0,037028
547,000000	-0,037092
546,000000	-0,037016
545,000000	-0,036932
544,000000	-0,036900
543,000000	-0,036757
542,000000	-0,036661
541,000000	-0,036453
540,000000	-0,036417
539,000000	-0,036349
538,000000	-0,036293
537,000000	-0,036242
536,000000	-0,036158
535,000000	-0,036078
534,000000	-0,035914
533,000000	-0,035846
532,000000	-0,035750
531,000000	-0,035702
530,000000	-0,035614
529,000000	-0,035534
528,000000	-0,035394
527,000000	-0,035278
526,000000	-0,035145
525,000000	-0,035081
524,000000	-0,034997
523,000000	-0,034917
522,000000	-0,034773
521,000000	-0,034632
520,000000	-0,034709
519,000000	-0,034424
518,000000	-0,034424
517,000000	-0,034364
516,000000	-0,034243
515,000000	-0,034111
514,000000	-0,034010
513,000000	-0,033946
512,000000	-0,033773
511,000000	-0,033769
510,000000	-0,033629
509,000000	-0,033404
508,000000	-0,033464
507,000000	-0,033287
506,000000	-0,033211
505,000000	-0,033046
504,000000	-0,032949
503,000000	-0,032856
502,000000	-0,032655
501,000000	-0,032663
500,000000	-0,032627
499,000000	-0,032530
498,000000	-0,032417
497,000000	-0,032312
496,000000	-0,032187
495,000000	-0,031909
494,000000	-0,031820
493,000000	-0,031651
492,000000	-0,031578
491,000000	-0,031469
490,000000	-0,031380
489,000000	-0,031328
488,000000	-0,031186
487,000000	-0,031020
486,000000	-0,030867
485,000000	-0,030689
484,000000	-0,030563
483,000000	-0,030430
482,000000	-0,030288
481,000000	-0,030130
480,000000	-0,029980
479,000000	-0,029887
478,000000	-0,029729
477,000000	-0,029562
476,000000	-0,029461
475,000000	-0,029230
474,000000	-0,029136
473,000000	-0,028929
472,000000	-0,028738
471,000000	-0,028685
470,000000	-0,028466
469,000000	-0,028282
468,000000	-0,028205
467,000000	-0,027977
466,000000	-0,027883
465,000000	-0,027765
464,000000	-0,027590
463,000000	-0,027464
462,000000	-0,027297
461,000000	-0,027142
460,000000	-0,026999
459,000000	-0,026868
458,000000	-0,026725
457,000000	-0,026631
456,000000	-0,026321
455,000000	-0,026174
454,000000	-0,026145
453,000000	-0,025887
452,000000	-0,025625
451,000000	-0,025343
450,000000	-0,025085
449,000000	-0,024814
448,000000	-0,024432
447,000000	-0,023989
446,000000	-0,023610
445,000000	-0,023203
444,000000	-0,022783
443,000000	-0,022379
442,000000	-0,021884
441,000000	-0,021619
440,000000	-0,021169
439,000000	-0,020875
438,000000	-0,020502
437,000000	-0,020287
436,000000	-0,020017
435,000000	-0,019851
434,000000	-0,019777
433,000000	-0,019611
432,000000	-0,019528
431,000000	-0,019440
430,000000	-0,019532
429,000000	-0,019486
428,000000	-0,019258
427,000000	-0,019399
426,000000	-0,019274
425,000000	-0,019291
424,000000	-0,019303
423,000000	-0,019241
422,000000	-0,019116
421,000000	-0,019133
420,000000	-0,019120
419,000000	-0,019071
418,000000	-0,018975
417,000000	-0,018987
416,000000	-0,018958
415,000000	-0,018817
414,000000	-0,018842
413,000000	-0,018655
412,000000	-0,018601
411,000000	-0,018601
410,000000	-0,018626
409,000000	-0,018376
408,000000	-0,018384
407,000000	-0,018368
406,000000	-0,018251
405,000000	-0,018243
404,000000	-0,017989
403,000000	-0,017951
402,000000	-0,017922
401,000000	-0,017822
400,000000	-0,017709
399,000000	-0,017588
398,000000	-0,017513
397,000000	-0,017396
396,000000	-0,017296
395,000000	-0,017238
394,000000	-0,017083
393,000000	-0,017000
392,000000	-0,016925
391,000000	-0,016758
390,000000	-0,016653
389,000000	-0,016595
388,000000	-0,016465
387,000000	-0,016365
386,000000	-0,016277
385,000000	-0,015988
384,000000	-0,020175
383,000000	-0,019341
382,000000	-0,019091
381,000000	-0,018563
380,000000	-0,018114
379,000000	-0,017659
378,000000	-0,017271
377,000000	-0,016900
376,000000	-0,016753
375,000000	-0,016620
374,000000	-0,016214
373,000000	-0,015867
372,000000	-0,015695
371,000000	-0,015494
370,000000	-0,015360
369,000000	-0,015356
368,000000	-0,015205
367,000000	-0,015066
366,000000	-0,014819
365,000000	-0,014663
364,000000	-0,014647
363,000000	-0,014487
362,000000	-0,014399
361,000000	-0,014205
360,000000	-0,014058
359,000000	-0,013810
358,000000	-0,013663
357,000000	-0,013583
356,000000	-0,013347
355,000000	-0,012968
354,000000	-0,012656
353,000000	-0,012356
352,000000	-0,012175
351,000000	-0,011731
350,000000	-0,011494
349,000000	-0,010995
348,000000	-0,010669
347,000000	-0,010304
346,000000	-0,009884
345,000000	-0,009672
344,000000	-0,009268
343,000000	-0,008936
342,000000	-0,008698
341,000000	-0,008511
340,000000	-0,008294
339,000000	-0,008123
338,000000	-0,007790
337,000000	-0,007940
336,000000	-0,007671
335,000000	-0,007581
334,000000	-0,007441
333,000000	-0,007124
332,000000	-0,007227
331,000000	-0,007107
330,000000	-0,007150
329,000000	-0,007090
328,000000	-0,008353
327,000000	-0,012614
326,000000	-0,012390
325,000000	-0,012268
324,000000	-0,012268
323,000000	-0,012179
322,000000	-0,012133
321,000000	-0,012014
320,000000	-0,012090
319,000000	-0,012082
318,000000	-0,012230
317,000000	-0,012166
316,000000	-0,012369
315,000000	-0,012196
314,000000	-0,012255
313,000000	-0,012483
312,000000	-0,012458
311,000000	-0,012449
310,000000	-0,012614
309,000000	-0,012436
308,000000	-0,012538
307,000000	-0,012466
306,000000	-0,012466
305,000000	-0,012365
304,000000	-0,012247
303,000000	-0,012124
302,000000	-0,011947
301,000000	-0,011820
300,000000	-0,011663
299,000000	-0,011532
298,000000	-0,011346
297,000000	-0,011080
296,000000	-0,011054
295,000000	-0,010813
294,000000	-0,010635
293,000000	-0,010414
292,000000	-0,010291
291,000000	-0,010092
290,000000	-0,009986
289,000000	-0,009956
288,000000	-0,009786
287,000000	-0,009876
286,000000	-0,009799
285,000000	-0,009888
284,000000	-0,009812
283,000000	-0,009786
282,000000	-0,009778
281,000000	-0,010007
280,000000	-0,010101
279,000000	-0,009978
278,000000	-0,009956
277,000000	-0,010007
276,000000	-0,009961
275,000000	-0,010096
274,000000	-0,010054
273,000000	-0,010130
272,000000	-0,010143
271,000000	-0,010177
270,000000	-0,010177
269,000000	-0,010130
268,000000	-0,010096
267,000000	-0,010050
266,000000	-0,010071
265,000000	-0,009973
264,000000	-0,010045
263,000000	-0,009927
262,000000	-0,009969
261,000000	-0,009990
260,000000	-0,009808
259,000000	-0,009842
258,000000	-0,009914
257,000000	-0,009697
256,000000	-0,009642
255,000000	-0,009506
254,000000	-0,009655
253,000000	-0,009476
252,000000	-0,009383
251,000000	-0,009226
250,000000	-0,009021
249,000000	-0,008941
248,000000	-0,008779
247,000000	-0,008766
246,000000	-0,008604
245,000000	-0,008506
244,000000	-0,008404
243,000000	-0,008417
242,000000	-0,008400
241,000000	-0,008217
240,000000	-0,008136
239,000000	-0,008055
238,000000	-0,008093
237,000000	-0,007995
236,000000	-0,007965
235,000000	-0,007999
234,000000	-0,007957
233,000000	-0,007978
232,000000	-0,008034
231,000000	-0,008178
230,000000	-0,008204
229,000000	-0,008528
228,000000	-0,008711
227,000000	-0,008953
226,000000	-0,009400
225,000000	-0,009816
224,000000	-0,010291
223,000000	-0,010732
222,000000	-0,010982
221,000000	-0,011130
220,000000	-0,011016
219,000000	-0,010703
218,000000	-0,010470
217,000000	-0,010207
216,000000	-0,010033
215,000000	-0,009876
214,000000	-0,009816
213,000000	-0,009625
212,000000	-0,009799
211,000000	-0,010067
210,000000	-0,010067
209,000000	-0,010325
208,000000	-0,010622
207,000000	-0,010961
206,000000	-0,011287
205,000000	-0,011706
204,000000	-0,012365
203,000000	-0,013246
202,000000	-0,014016
201,000000	-0,014579
200,000000	-0,015754
